Time [s], II
0.0,0.0
0.02002002002002002,0.06272901509014801
0.04004004004004004,0.1244667772334458
0.06006006006006006,0.18423769740512494
0.08008008008008008,0.24109726690102384
0.10010010010010009,0.2941469826004025
0.12012012012012012,0.34254854524189043
0.14014014014014015,0.3855371063493624
0.16016016016016016,0.42243335447790886
0.18018018018018017,0.4526542497912983
0.20020020020020018,0.4757222373415883
0.22022022022022023,0.49127279346131386
0.24024024024024024,0.49906018601907315
0.2602602602602603,0.49896135751412163
0.2802802802802803,0.49097786964875334
0.3003003003003003,0.47523587865005573
0.3203203203203203,0.4519841417310081
0.34034034034034033,0.4215900861931112
0.36036036036036034,0.3845340032871585
0.38038038038038036,0.34140145858159454
0.40040040040040037,0.29287403877091983
0.42042042042042044,0.23971858114440497
0.44044044044044045,0.1827750559126095
0.46046046046046046,0.12294329287692528
0.4804804804804805,0.061168762189228655
0.5005005005005005,-0.0015723661038682213
0.5205205205205206,-0.06428864764093446
0.5405405405405406,-0.1259890306925626
0.5605605605605606,-0.18569851690378414
0.5805805805805806,-0.24247356835874384
0.6006006006006006,-0.29541701750297905
0.6206206206206206,-0.3436922443145551
0.6406406406406406,-0.38653639669435874
0.6606606606606606,-0.4232724451650302
0.6806806806806807,-0.45331988138844465
0.7007007007007007,-0.4762038914422256
0.7207207207207207,-0.49156285889785206
0.7407407407407407,-0.4991540791356341
0.7607607607607607,-0.4988575945981307
0.7807807807807807,-0.49067809037677984
0.8008008008008007,-0.4747448201774068
0.8208208208208209,-0.4513095638345169
0.8408408408408409,-0.4207426486500252
0.8608608608608609,-0.38352709742779945
0.8808808808808809,-0.34025099567762623
0.9009009009009009,-0.2915981986031366
0.9209209209209209,-0.23833752472321396
0.9409409409409409,-0.18131060689083364
0.960960960960961,-0.12141859268929367
0.980980980980981,-0.05960790436808668
1.001001001001001,0.0031447166580339573
1.021021021021021,0.06584764441781198
1.0410410410410411,0.12751003820015547
1.0610610610610611,0.18715749996200937
1.0810810810810811,0.24384747190681727
1.1011011011011012,0.29668413091881024
1.1211211211211212,0.3448325444891311
1.1411411411411412,0.3875318644398007
1.1611611611611612,0.4241073499564011
1.1811811811811812,0.4539810299397731
1.2012012012012012,0.4766808361887147
1.2212212212212212,0.491848063089805
1.2412412412412412,0.4992430359352612
1.2612612612612613,0.49874889829724983
1.2812812812812813,0.4903734586100199
1.3013013013013013,0.4742490667798976
1.3213213213213213,0.45063052277297244
1.3413413413413413,0.4198910502292702
1.3613613613613613,0.382516398728945
1.3813813813813813,0.33909716790733346
1.4014014014014013,0.2903194747143034
1.4214214214214214,0.2369541112952218
1.4414414414414414,0.1798443648222684
1.4614614614614614,0.11989269174886805
1.4814814814814814,0.05804645706261553
1.5015015015015014,-0.004717036112947612
1.5215215215215214,-0.06740599000329188
1.5415415415415414,-0.12902978471442456
1.5615615615615615,-0.18861463215138408
1.5815815815815815,-0.2452189639582099
1.6016016016016015,-0.29794831031694824
1.6216216216216217,-0.34596943448877293
1.6416416416416417,-0.3885234997411444
1.6616616616616617,-0.42493806059534317
1.6816816816816818,-0.45463768890694406
1.7017017017017018,-0.4771530668643745
1.7217217217217218,-0.4921284032166843
1.7417417417417418,-0.49932705553822826
1.7617617617617618,-0.49863526968641636
1.7817817817817818,-0.49006397736108837
1.8018018018018018,-0.47374862336021484
1.8218218218218218,-0.4499470252616592
1.8418418418418419,-0.4190352993526135
1.8618618618618619,-0.38150191718576365
1.8818818818818819,-0.33793998668133984
1.901901901901902,-0.28903787975018524
1.921921921921922,-0.2355683545415091
1.941941941941942,-0.1783763442071164
1.961961961961962,-0.1183656051458399
1.981981981981982,-0.05648443571453679
2.002002002002002,0.006289308919370694
2.022022022022022,0.06896366898632748
2.042042042042042,0.13054825520604446
2.062062062062062,0.19006989906179836
2.0820820820820822,0.24658803094973764
2.1021021021021022,0.29920954319546356
2.1221221221221223,0.3471029030703612
2.1421421421421423,0.3895112927917458
2.1621621621621623,0.42576456886665565
2.1821821821821823,0.45528985179601766
2.2022022022022023,0.4776205787991435
2.2222222222222223,0.492403876506104
2.2422422422422423,0.4994061371136346
2.2622622622622623,0.4985167098893451
2.2822822822822824,0.4897496496905583
2.3023023023023024,0.4732434948674262
2.3223223223223224,0.4492590780599337
2.3423423423423424,0.41817540448288837
2.3623623623623624,0.3804836628308338
2.3823823823823824,0.3367794634434332
2.4024024024024024,0.28775342638494483
2.4224224224224224,0.23418026816633042
2.4424424424424425,0.17690655956316984
2.4624624624624625,0.1168373479821262
2.4824824824824825,0.05492185577125034
2.5025025025025025,-0.007861519528519816
2.5225225225225225,-0.07052066596245951
2.5425425425425425,-0.13206543465830267
2.5625625625625625,-0.19152328630158305
2.5825825825825826,-0.24795465934219446
2.6026026026026026,-0.3004678170815616
2.6226226226226226,-0.3482329390246101
2.6426426426426426,-0.3904952338229584
2.6626626626626626,-0.4265868665966964
2.6826826826826826,-0.4559375121575164
2.7027027027027026,-0.47808336736962526
2.7227227227227226,-0.4926744802338082
2.7427427427427427,-0.4994802798794136
2.7627627627627627,-0.4983932200785172
2.7827827827827827,-0.4894304787069308
2.8028028028028027,-0.47273368629693224
2.8228228228228227,-0.4485666879711575
2.8428428428428427,-0.41731137412390895
2.8628628628628627,-0.3794616457340444
2.8828828828828827,-0.33561560967045223
2.9029029029029028,-0.2864661273210105
2.9229229229229228,-0.23278986589697867
2.942942942942943,-0.17543502542566652
2.962962962962963,-0.11530793537122089
2.982982982982983,-0.05335873268567974
3.003003003003003,0.009433652392232015
3.023023023023023,0.07207696553397816
3.043043043043043,0.1335813080672602
3.063063063063063,0.19297477949766279
3.083083083083083,0.24931883562049473
3.103103103103103,0.3017231195317126
3.123123123123123,0.34935953117618235
3.143143143143143,0.3914753131042307
3.163163163163163,0.42740494565346254
3.183183183183183,0.4565806635864915
3.203203203203203,0.47854142799913496
3.2232232232232234,0.49294021172369806
3.2432432432432434,0.4995494831023407
3.2632632632632634,0.49826480147516833
3.2832832832832834,0.4891064675666041
3.3033033033033035,0.4722192026904146
3.3233233233233235,0.4478698618426277
3.3433433433433435,0.4164432168203865
3.3633633633633635,0.3784358760024964
3.3833833833833835,0.33444843687216996
3.4034034034034035,0.2851759952889505
3.4234234234234235,0.23139716148364878
3.4434434434434436,0.17396175634714234
3.4634634634634636,0.11377738243804109
3.4834834834834836,0.05179508191611902
3.5035035035035036,-0.011005691963113181
3.5235235235235236,-0.07363255231007051
3.5435435435435436,-0.1350958604418915
3.5635635635635636,-0.19442436429569304
3.5835835835835836,-0.25068054629380276
3.6036036036036037,-0.3029754381317743
3.6236236236236237,-0.35048266838379805
3.6436436436436437,-0.39245152094320196
3.6636636636636637,-0.428218797946673
3.6836836836836837,-0.4572192997225824
3.7037037037037037,-0.4789947561577443
3.7237237237237237,-0.49320106834785726
3.7437437437437437,-0.49961374609803966
3.7637637637637638,-0.4981314553492773
3.7837837837837838,-0.48877761947384313
3.803803803803804,-0.4717000491357905
3.823823823823824,-0.44716860656551405
3.843843843843844,-0.41557094115784704
3.863863863863864,-0.3774063637803993
3.883883883883884,-0.3332779565911868
3.903903903903904,-0.2838830430473544
3.923923923923924,-0.23000216869930554
3.943943943943944,-0.17248676689729645
3.963963963963964,-0.11224570431878703
3.983983983983984,-0.05023091892608418
4.004004004004004,0.012577622694688251
4.024024024024024,0.0751874109069692
4.044044044044044,0.1366090768042343
4.064064064064064,0.19587202636019882
4.084084084084084,0.2520397778956629
4.104104104104104,0.3042247604971095
4.124124124124124,0.3516023395403419
4.1441441441441444,0.3934238476857953
4.1641641641641645,0.4290284154278443
4.1841841841841845,0.45785341425008447
4.2042042042042045,0.47944334736232497
4.2242242242242245,0.49345704752658015
4.2442442442442445,0.49967306823099045
4.2642642642642645,0.49799318301955214
4.2842842842842845,0.4884439376807461
4.3043043043043046,0.4711762307671595
4.324324324324325,0.44646292907478424
4.344344344344345,0.41469455576254105
4.364364364364365,0.37637311924897787
4.384384384384385,0.33210418040280715
4.404404404404405,0.2825872833826961
4.424424424424425,0.22860490133953876
4.444444444444445,0.1710100716628347
4.464464464464465,0.11071291616077938
4.484484484484485,0.048666259184150594
4.504504504504505,-0.014149429041558527
4.524524524524525,-0.07674152594810815
4.544544544544545,-0.13812094218953772
4.564564564564565,-0.19731775137471977
4.584584584584585,-0.2533965169841361
4.604604604604605,-0.30547107427271175
4.624624624624625,-0.35271853357297595
4.644644644644645,-0.3943922837163155
4.664664664664665,-0.4298337900903727
4.684684684684685,-0.45848300089800625
4.704704704704705,-0.4798871971765944
4.724724724724725,-0.49370814672839447
4.744744744744745,-0.4997274489145347
4.764764764764765,-0.4978499858534189
4.784784784784785,-0.4881054254872148
4.804804804804805,-0.4706477527647515
4.824824824824825,-0.4457528363491423
4.844844844844845,-0.4138140693013658
4.864864864864865,-0.37533615262636205
4.884884884884885,-0.3309271199149348
4.904904904904905,-0.2812887291092189
4.924924924924925,-0.22720537322243867
4.944944944944945,-0.16953168524733875
4.964964964964965,-0.10917903312232337
4.984984984984985,-0.04710111816381325
5.005005005005005,0.015721095459558937
5.025025025025025,0.07829488206427802
5.045045045045045,0.13963144164641475
5.065065065065065,0.19876152504195507
5.085085085085085,0.2547507501419357
5.105105105105105,0.3067143671333291
5.125125125125125,0.353831239443251
5.145145145145145,0.39535681945754614
5.165165165165165,0.43063491396961506
5.185185185185185,0.45910805344013694
5.205205205205205,0.48032630121116066
5.225225225225225,0.49395436347008864
5.245245245245245,0.49977688761088185
5.265265265265265,0.49770186526700644
5.285285285285285,0.48776208624091955
5.305305305305305,0.4701146203548796
5.325325325325325,0.44503833541095295
5.345345345345345,0.4129294904817712
5.365365365365365,0.37429547416749687
5.385385385385385,0.3297467867679494
5.405405405405405,0.2799873930687988
5.425425425425425,0.22580359818844822
5.445445445445445,0.1680516222711083
5.465465465465465,0.10764407037254489
5.485485485485485,0.04553551134332315
5.505505505505505,-0.017292606405906442
5.525525525525525,-0.07984746389377305
5.545545545545545,-0.14114056023698474
5.565565565565565,-0.20020333308390137
5.585585585585585,-0.2561024639765571
5.605605605605605,-0.30795462678358737
5.625625625625625,-0.3549404461472125
5.645645645645645,-0.3963174453708411
5.665665665665665,-0.4314317791429648
5.685685685685685,-0.45972856569510234
5.7057057057057055,-0.48076065512356264
5.7257257257257255,-0.4941956953167364
5.7457457457457455,-0.4998213838311149
5.7657657657657655,-0.49754882272513323
5.7857857857857855,-0.4874139233372675
5.8058058058058055,-0.4695768388098843
5.8258258258258255,-0.4443194333261783
5.8458458458458455,-0.41204082805168235
5.865865865865866,-0.3732510941640282
5.885885885885886,-0.3285631926345963
5.905905905905906,-0.2786832881308229
5.925925925925926,-0.22439959010023255
5.945945945945946,-0.16656989737102984
5.965965965965966,-0.10610804309125452
5.985985985985986,-0.043969454205534206
6.006006006006006,0.01886394633935553
6.026026026026026,0.08139925608254467
6.046046046046046,0.14264828303702298
6.066066066066066,0.20164316124198928
6.086086086086086,0.2574516451204055
6.106106106106106,0.30919184095810737
6.126126126126126,0.3560461427155103
6.146146146146146,0.39727415195622007
6.166166166166166,0.4322243777299313
6.186186186186186,0.46034453152643084
6.206206206206206,0.4811902546183164
6.226226226226226,0.49443213988171775
6.246246246246246,0.49986093713519425
6.266266266266266,0.497390859741293
6.286286286286286,0.48706094021936874
6.306306306306306,0.46903441344808366
6.326326326326326,0.44359613720430274
6.346346346346346,0.41114809079940534
6.366366366366366,0.3722030229442098
6.386386386386386,0.3273763492198702
6.406406406406406,0.27737642719206107
6.426426426426427,0.22299336284253707
6.446446446446447,0.1650865252004169
6.466466466466467,0.1045709664687816
6.486486486486487,0.042402962237755484
6.506506506506507,-0.020435099720355433
6.526526526526527,-0.08295024328435686
6.546546546546547,-0.1441545951361116
6.566566566566567,-0.20308099527723736
6.586586586586587,-0.2587982802309407
6.606606606606607,-0.31042599742162086
6.626626626626627,-0.35714831821351
6.646646646646647,-0.39822692975246443
6.666666666666667,-0.4330127018922195
6.686686686686687,-0.46095594484261293
6.706706706706707,-0.4816150954469567
6.726726726726727,-0.49466369482674655
6.746746746746747,-0.49989554713196305
6.766766766766767,-0.49722797787763884
6.786786786786787,-0.48670314037800133
6.806806806806807,-0.46848734963371885
6.826826826826827,-0.4428684541982642
6.846846846846847,-0.41025128755354284
6.866866866866867,-0.3711512708728056
6.886886886886887,-0.32618626826089614
6.906906906906907,-0.2760668231765354
6.926926926926927,-0.22158493032206286
6.946946946946947,-0.16360152042888512
6.966966966966967,-0.10303285570584503
6.986986986986987,-0.040836050931605056
7.007007007007007,0.02200605101118963
7.027027027027027,0.08450041016092388
7.047047047047047,0.14565948163777348
7.067067067067067,0.20451682097037333
7.087087087087087,0.2601423559907903
7.107107107107107,0.31165708396910674
7.127127127127127,0.35824696174139053
7.147147147147147,0.39917576933720234
7.167167167167167,0.4337967438338004
7.187187187187187,0.4615627995971562
7.207207207207207,0.4820351734080755
7.227227227227227,0.4948903578618919
7.247247247247247,0.4999252134791502
7.267267267267267,0.49706017874496977
7.287287287287287,0.48634052735158023
7.307307307307307,0.46793565277690613
7.327327327327327,0.44213639150438877
7.347347347347347,0.4093504271829136
7.367367367367367,0.37009584835097326
7.387387387387387,0.3249929615268246
7.407407407407407,0.274754489035404
7.4274274274274275,0.22017430646731023
7.4474474474474475,0.16211489774218557
7.4674674674674675,0.10149372601338023
7.4874874874874875,0.039268735782837384
7.5075075075075075,-0.023576784676150788
7.5275275275275275,-0.08604974138208302
7.5475475475475475,-0.14716292765963995
7.5675675675675675,-0.20595062412199594
7.587587587587588,-0.2614838591079013
7.607607607607608,-0.3128850884259034
7.627627627627628,-0.35934206243426753
7.647647647647648,-0.4001206613270149
7.667667667667668,-0.4345764958009988
7.687687687687688,-0.4621650897886539
7.707707707707708,-0.4824504843473694
7.727727727727728,-0.4951121267455993
7.747747747747748,-0.4999499358833744
7.767767767767768,-0.49688746400271233
7.787787787787788,-0.4859731047261172
7.807807807807808,-0.4673793283335759
7.827827827827828,-0.4413999563623101
7.847847847847848,-0.40844551859645273
7.867867867867868,-0.36903676581617156
7.887887887887888,-0.32379644081869896
7.907907907907908,-0.2734394377468154
7.927927927927928,-0.2187615052284535
7.947947947947948,-0.16062667184207277
7.967967967967968,-0.0999535926124027
7.987987987987988,-0.03770103229120068
8.008008008008009,0.02514728518168375
8.028028028028029,0.08759822162593567
8.048048048048049,0.1486649183335878
8.068068068068069,0.20738239055270558
8.088088088088089,0.26282277631566275
8.108108108108109,0.31410999864782096
8.128128128128129,0.36043360946229275
8.148148148148149,0.40106159637752237
8.168168168168169,0.43535195008256444
8.188188188188189,0.4627628094608397
8.208208208208209,0.48286102415767795
8.228228228228229,0.4953289992847158
8.248248248248249,0.49996971410014684
8.268268268268269,0.4967098353589053
8.288288288288289,0.4856008761351879
8.308308308308309,0.4668183818054225
8.328328328328329,0.4406591560549025
8.348348348348349,0.40753657074313165
8.368368368368369,0.36797403374205195
8.388388388388389,0.3225967179693466
8.408408408408409,0.2721216823157889
8.428428428428429,0.2173465405771967
8.448448448448449,0.1591368574461526
8.468468468468469,0.09841247073385045
8.488488488488489,0.03613295596029423
8.508508508508509,-0.02671753699652852
8.528528528528529,-0.08914583557898831
8.548548548548549,-0.15016543880587607
8.568568568568569,-0.20881210610323475
8.588588588588589,-0.26415909437302737
8.608608608608609,-0.31533180252127774
8.62862862862863,-0.3615215920307543
8.64864864864865,-0.40199856518347027
8.66866866866867,-0.4361230990097434
8.68868868868869,-0.4633559527026429
8.70870870870871,-0.4832667887790211
8.72872872872873,-0.49554097333450964
8.74874874874875,-0.4999845479338734
8.76876876876877,-0.4965272945701839
8.78878878878879,-0.4852238452598984
8.80880880880881,-0.46625281873985347
8.82882882882883,-0.4399139979082141
8.84884884884885,-0.4066235926118654
8.86886886886887,-0.3669076626383647
8.88888888888889,-0.3213938048432702
8.90890890890891,-0.27080123577409515
8.92892892892893,-0.21592942650664834
8.94894894894895,-0.15764546928775036
8.96896896896897,-0.09687037561844741
8.98898898898899,-0.03456452229739384
9.00900900900901,0.02828752459189514
9.02902902902903,0.09069256793632505
9.04904904904905,0.15166447423731336
9.06906906906907,0.21023975663460767
9.08908908908909,0.2654928000646611
9.10910910910911,0.3165504879634119
9.12912912912913,0.3626059993801977
9.14914914914915,0.40293155847883405
9.16916916916917,0.43688993495636413
9.18918918918919,0.46394451364825473
9.20920920920921,0.4836677741986453
9.22922922922923,0.49574804679869255
9.24924924924925,0.499994437237857
9.26926926926927,0.4963398434417603
9.28928928928929,0.48484201582884395
9.30930930930931,0.46568264472992715
9.32932932932933,0.43916448929138413
9.34934934934935,0.4057065932314323
9.36936936936937,0.3658376630508406
9.38938938938939,0.3201877133365142
9.40940940940941,0.26947811118010906
9.42942942942943,0.21451017703116365
9.44944944944945,0.15615252211574468
9.46946946946947,0.09532732251653168
9.48948948948949,0.03299574681330912
9.50950950950951,-0.02985723244160306
9.52952952952953,-0.09223840340174484
9.54954954954955,-0.15316200980339095
9.56956956956957,-0.21166532802826696
9.58958958958959,-0.26682388020106135
9.60960960960961,-0.3177660429221926
9.62962962962963,-0.3636868207865228
9.64964964964965,-0.40386056703690243
9.66966966966967,-0.43765245033890593
9.68968968968969,-0.46452848647718115
9.70970970970971,-0.48406397645105936
9.72972972972973,-0.4959502176294385
9.74974974974975,-0.4999993819142987
9.76976976976977,-0.4961474838274071
9.78978978978979,-0.48445539161807516
9.80980980980981,-0.4651078654143025
9.82982982982983,-0.438410637616577
9.84984984984985,-0.40478558167037193
9.86986986986987,-0.36476404556109376
9.88988988988989,-0.3189784553765578
9.90990990990991,-0.2681523216186928
9.92992992992993,-0.21308880618621884
9.94994994994995,-0.1546580306944352
9.96996996996997,-0.0937833266879188
9.98998998998999,-0.03142664502224069
10.01001001001001,0.03142664502223824
10.03003003003003,0.0937833266879164
10.05005005005005,0.15465803069443287
10.07007007007007,0.21308880618621662
10.09009009009009,0.26815232161869074
10.11011011011011,0.3189784553765559
10.13013013013013,0.3647640455610921
10.15015015015015,0.4047855816703705
10.17017017017017,0.4384106376165758
10.19019019019019,0.4651078654143016
10.21021021021021,0.48445539161807366
10.23023023023023,0.4961474838274068
10.25025025025025,0.4999993819142987
10.27027027027027,0.49595021762943836
10.29029029029029,0.48406397645106
10.31031031031031,0.46452848647718076
10.33033033033033,0.4376524503389071
10.35035035035035,0.4038605670369059
10.37037037037037,0.36368682078652453
10.39039039039039,0.3177660429221945
10.41041041041041,0.26682388020106046
10.43043043043043,0.21166532802826918
