Time [s], II
0.0,0.45464871341284085
0.02002002002002002,0.42495201994085596
0.04004004004004004,0.3885401733386814
0.06006006006006006,0.3459885588597406
0.08008008008008008,0.29796958325527767
0.10010010010010009,0.2452420493058595
0.12012012012012012,0.18863916511036036
0.14014014014014015,0.1290553776113696
0.16016016016016016,0.06743223841555569
0.18018018018018017,0.004743525259333186
0.20020020020020018,-0.058020145767422045
0.22022022022022023,-0.11986697407974942
0.24024024024024024,-0.17981964717354149
0.2602602602602603,-0.23693078425873898
0.2802802802802803,-0.2902979069072598
0.3003003003003003,-0.33907770014732874
0.3203203203203203,-0.382499338648331
0.34034034034034033,-0.4198766674139023
0.36036036036036034,-0.45061904450217416
0.38038038038038036,-0.4742406744349602
0.40040040040040037,-0.4903682848079888
0.42042042042042044,-0.49874702479529126
0.44044044044044045,-0.49924449233872337
0.46046046046046046,-0.4918528263843903
0.4804804804804805,-0.4766888311041547
0.5005005005005005,-0.45399213013926065
0.5205205205205206,-0.4241213800329824
0.5405405405405406,-0.38754860268818137
0.5605605605605606,-0.3448517264090952
0.5805805805805806,-0.29670545339489107
0.6006006006006006,-0.2438705979981714
0.6206206206206206,-0.18718206422680506
0.6406406406406406,-0.12753565247033555
0.6606606606606606,-0.06587390393298388
0.6806806806806807,-0.0031712064615502873
0.7007007007007007,0.059581602871922545
0.7207207207207207,0.12139289512051928
0.7407407407407407,0.18128591932613833
0.7607607607607607,0.23831423727905693
0.7807807807807807,0.2915766792710703
0.8008008008008007,0.3402315845092406
0.8208208208208209,0.38351010116117834
0.8408408408408409,0.42072833586262537
0.8608608608608609,0.45129816069907036
0.8808808808808809,0.4747365068879046
0.9009009009009009,0.49067299830102235
0.9209209209209209,0.4988558042018338
0.9409409409409409,0.49915561871089825
0.960960960960961,0.49156770411608686
0.980980980980981,0.4762119657385936
1.001001001001001,0.45333105717174926
1.021021021021021,0.42328654583393127
1.0410410410410411,0.3865531994280523
1.0610610610610611,0.343711483593819
1.0810810810810811,0.2954383893059459
1.1011011011011012,0.24249673496510055
1.1211211211211212,0.1857231122314745
1.1411411411411412,0.12601466608266926
1.1611611611611612,0.06431491799932497
1.1811811811811812,0.0015988563025493008
1.2012012012012012,-0.06114247075219939
1.2212212212212212,-0.12291761566262815
1.2412412412412412,-0.18275039867608975
1.2612612612612613,-0.23969533352287214
1.2812812812812813,-0.29285256812664273
1.3013013013013013,-0.34138210419679266
1.3213213213213213,-0.384517071002612
1.3413413413413413,-0.4215758435752237
1.3613613613613613,-0.45197281384368265
1.3813813813813813,-0.475227644498202
1.4014014014014013,-0.4909728593496268
1.4214214214214214,-0.4989596502411922
1.4414414414414414,-0.4990618087509139
1.4614614614614614,-0.491277720555282
1.4814814814814814,-0.47573039093903424
1.5015015015015014,-0.45266550104789893
1.5215215215215214,-0.4224475255996836
1.5415415415415414,-0.3855539734022008
1.5615615615615615,-0.3425678416901902
1.5815815815815815,-0.29416840351890294
1.6016016016016015,-0.24112047379328086
1.6216216216216217,-0.18426232355247804
1.6416416416416417,-0.12449243348996152
1.6616616616616617,-0.06275529603196006
1.6816816816816818,-2.6490331874138443e-05
1.7017017017017018,0.06270273397225891
1.7217217217217218,0.12444112062755751
1.7417417417417418,0.18421307074062623
1.7617617617617618,0.24107405933201936
1.7817817817817818,0.2941255608562461
1.8018018018018018,0.3425292478320745
1.8218218218218218,0.38552023821434045
1.8418418418418419,0.4224191821703844
1.8618618618618619,0.4526429972641199
1.8818818818818819,0.4757140824088135
1.901901901901902,0.4912678649883672
1.921921921921922,0.4990585618863951
1.941941941941942,0.4989630633864911
1.961961961961962,0.490982878569729
1.981981981981982,0.4752441114679458
2.002002002002002,0.4519954683496361
2.022022022022022,0.42160432762761535
2.042042042042042,0.3845509344923364
2.062062062062062,0.3414208120080994
2.0820820820820822,0.29289550859311286
2.1021021021021022,0.23974182809305916
2.1221221221221223,0.1827997126360883
2.1421421421421423,0.12296896974612577
2.1621621621621623,0.061195053454560215
2.1821821821821823,-0.0015458759007735876
2.2022022022022023,-0.06426237710208889
2.2222222222222223,-0.1259633949488105
2.2422422422422423,-0.18567392105484679
2.2622622622622623,-0.24245040107177576
2.2822822822822824,-0.2953956448707912
2.3023023023023024,-0.34367300407056495
2.3223223223223224,-0.38651959287567655
2.3423423423423424,-0.42325834330802337
2.3623623623623624,-0.4533087043326931
2.3823823823823824,-0.476195815809177
2.4024024024024024,-0.4915580122998247
2.4224224224224224,-0.49915253815926913
2.4424424424424425,-0.49885938359415904
2.4624624624624625,-0.4906831810752279
2.4824824824824825,-0.4747531321343238
2.5025025025025025,-0.4513209657031602
2.5225225225225225,-0.4207569602564209
2.5425425425425425,-0.3835440926178786
2.5625625625625625,-0.3402704058909443
2.5825825825825826,-0.29161971711670115
2.6026026026026026,-0.23836081149836855
2.6226226226226226,-0.18133529394659942
2.6426426426426426,-0.12144428991725208
2.6626626626626626,-0.05963420569693394
2.6826826826826826,0.0031182268456892304
2.7027027027027026,0.0658213847178081
2.7227227227227226,0.12748442357206058
2.7427427427427427,0.18713293517187096
2.7627627627627627,0.24382434513099452
2.7827827827827827,0.29666280760995134
2.8028028028028027,0.3448133616012377
2.8228228228228227,0.3875151251036366
2.8428428428428427,0.42409331868937117
2.8628628628628627,0.45396992846598316
2.8828828828828827,0.4766728399352546
2.9029029029029028,0.49184329841462643
2.9229229229229228,0.49924157813044845
2.942942942942943,0.4987507703992449
2.962962962962963,0.49037863103559687
2.982982982982983,0.47425745779364126
3.003003003003003,0.4506419997788735
3.023023023023023,0.41990543186602464
3.043043043043043,0.3825334577358543
3.063063063063063,0.33911663471550985
3.083083083083083,0.29034104170643416
3.103103103103103,0.23697743766658627
3.123123123123123,0.17986908196618168
3.143143143143143,0.11991840908145508
3.163163163163163,0.05807276819487546
3.183183183183183,-0.004690546953322883
3.203203203203203,-0.0673797414018219
3.2232232232232234,-0.12900419145530118
3.2432432432432434,-0.18859009866297707
3.2632632632632634,-0.24519587792224354
3.2832832832832834,-0.2979270365422944
3.3033033033033035,-0.34595030914668595
3.3233233233233235,-0.38850682505304074
3.3433433433433435,-0.4249241000570505
3.3633633633633635,-0.4546266631249017
3.3833833833833835,-0.4771451500695815
3.4034034034034035,-0.49212372051147446
3.4234234234234235,-0.49932568091938456
3.4434434434434436,-0.4986372248758642
3.4634634634634636,-0.4900692314626419
3.4834834834834836,-0.4737570933478033
3.5035035035035036,-0.44995857729131705
3.5235235235235236,-0.41904975087750074
3.5435435435435436,-0.3815190398407992
3.5635635635635636,-0.33795950989185913
3.5835835835835836,-0.2890594950075983
3.6036036036036037,-0.23559172027839895
3.6236236236236237,-0.17840109119473904
3.6436436436436437,-0.11839134232872575
3.6636636636636637,-0.056510756390007695
3.6836836836836837,0.00626282067442338
3.7037037037037037,0.06893743174297384
3.7237237237237237,0.13052268356899027
3.7437437437437437,0.19004539711774007
3.7637637637637638,0.2465649858819312
3.7837837837837838,0.29918831916539607
3.803803803803804,0.3470838354632177
3.823823823823824,0.3894946829166037
3.843843843843844,0.42575067919516013
3.863863863863864,0.4552789018147614
3.883883883883884,0.47761274154130917
3.903903903903904,0.4923992758171716
3.923923923923924,0.49940484569435406
3.943943943943944,0.4985187481469103
3.963963963963964,0.489754985416129
3.983983983983984,0.47325204374509716
4.004004004004004,0.4492707049991062
4.024024024024024,0.41818992575299185
4.044044044044044,0.3805008489646634
4.064064064064064,0.33679904286322326
4.084084084084084,0.2877750896938784
4.104104104104104,0.23420367303767328
4.124124124124124,0.17693133614976989
4.1441441441441444,0.11686310476078648
4.1641641641641645,0.05494818572963744
4.1841841841841845,-0.007835032460205395
4.2042042042042045,-0.07049444033669365
4.2242242242242245,-0.13203988489620835
4.2442442442442445,-0.19149881614418546
4.2642642642642645,-0.24793165547045212
4.2842842842842845,-0.3004466430059748
4.3043043043043046,-0.34821392934097617
4.324324324324325,-0.39047868892504073
4.344344344344345,-0.426573047929359
4.364364364364365,-0.45592663808533423
4.384384384384385,-0.4780756097262559
4.404404404404405,-0.4926699616066514
4.424424424424425,-0.4994790716724677
4.444444444444445,-0.49839534138404246
4.464464464464465,-0.48943589600375137
4.484484484484485,-0.4727423139801416
4.504504504504505,-0.44857838970486197
4.524524524524525,-0.4173259649956236
4.544544544544545,-0.3794788951767093
4.564564564564565,-0.3356352451058857
4.584584584584585,-0.2864878384672288
4.604604604604605,-0.23281330967131686
4.624624624624625,-0.1754598313662201
4.644644644644645,-0.11533371149093827
4.664664664664665,-0.053385071666598234
4.684684684684685,0.009407166762489
4.704704704704705,0.07205075178515312
4.724724724724725,0.13355578043279412
4.744744744744745,0.1929503413689202
4.764764764764765,0.24929587317230867
4.784784784784785,0.3017019956200039
4.804804804804805,0.3493405796040528
4.824824824824825,0.39145883334715376
4.844844844844845,0.4273911981269416
4.864864864864865,0.45656986553092044
4.884884884884885,0.47853375004694815
4.904904904904905,0.4929357752030027
4.924924924924925,0.49954835811967757
4.944944944944945,0.4982670058076754
4.964964964964965,0.4891119663811018
4.984984984984985,0.47222790909384094
5.005005005005005,0.4478816382551422
5.025025025025025,0.41645787714941834
5.045045045045045,0.3784531885834099
5.065065065065065,0.3344681281290674
5.085085085085085,0.2851977540577441
5.105105105105105,0.23142064392914058
5.125125125125125,0.1739865913963361
5.145145145145145,0.11380317764390784
5.165165165165165,0.05182142965909399
5.185185185185185,-0.010979208033867635
5.205205205205205,-0.0736063506974236
5.225225225225225,-0.13507035518750318
5.245245245245245,-0.19439995843727811
5.265265265265265,-0.2506576254962554
5.285285285285285,-0.30295436459284436
5.305305305305305,-0.35046377511058935
5.325325325325325,-0.3924351064899423
5.345345345345345,-0.42820512169692093
5.365365365365365,-0.45720857779040897
5.385385385385385,-0.4789871579726696
5.405405405405405,-0.4931967139774981
5.425425425425425,-0.49961270435078475
5.445445445445445,-0.4981337426869667
5.465465465465465,-0.4887831997516368
5.485485485485485,-0.47170883417333476
5.505505505505505,-0.4471804575403765
5.525525525525525,-0.41558567079921377
5.545545545545545,-0.37742373932835227
5.565565565565565,-0.333297703474809
5.585585585585585,-0.2839048492235429
5.605605605605605,-0.23002568958372133
5.625625625625625,-0.17251163080952583
5.645645645645645,-0.1122715183557032
5.665665665665665,-0.05025727517055142
5.685685685685685,0.012551140727847646
5.7057057057057055,0.075161221689616
5.7257257257257255,0.1365835941821596
5.7457457457457455,0.19584765301347162
5.7657657657657655,0.25201689897542645
5.7857857857857855,0.30420373753936225
5.8058058058058055,0.3515835047528966
5.8258258258258255,0.3934074986986792
5.8458458458458455,0.4290148105901106
5.865865865865866,0.45784276854734113
5.885885885885886,0.47943582901950366
5.905905905905906,0.49345277534961884
5.925925925925926,0.4996721097294459
5.945945945945946,0.49799555333980383
5.965965965965966,0.4884495993666514
5.985985985985986,0.47118509435194145
6.006006006006006,0.4464748544947969
6.026026026026026,0.4147093545705769
6.046046046046046,0.3763905575921359
6.066066066066066,0.33212398271787386
6.086086086086086,0.2826091367506318
6.106106106106106,0.22862846043027035
6.126126126126126,0.17103496419221306
6.146146146146146,0.11073874877346229
6.166166166166166,0.048692623669465335
6.186186186186186,-0.014122949299014474
6.206206206206206,-0.07671534938504514
6.226226226226226,-0.13809548245178196
6.246246246246246,-0.19729341078071894
6.266266266266266,-0.2533736801674701
6.286286286286286,-0.3054501021040523
6.306306306306306,-0.3526997574575594
6.326326326326326,-0.3943760003570252
6.346346346346346,-0.42982025679920144
6.366366366366366,-0.4584724315299744
6.386386386386386,-0.4798797587503786
6.406406406406406,-0.4937039567870804
6.426426426426427,-0.49972657366817963
6.446446446446447,-0.49785243913279137
6.466466466466467,-0.4881111685252401
6.486486486486487,-0.4706566948091153
6.506506506506507,-0.44576483609636797
6.526526526526527,-0.41382893712971686
6.546546546546547,-0.37535365359226985
6.566566566566567,-0.33094697746560975
6.586586586586587,-0.28131062945278146
6.606606606606607,-0.2272289702865032
6.626626626626627,-0.1695566061476898
6.646646646646647,-0.10920488405529966
6.666666666666667,-0.04712749062924217
6.686686686686687,0.01569461820318283
6.706706706706707,0.0782687184143783
6.726726726726727,0.13960600504475854
6.746746746746747,0.1987372174413968
6.766766766766767,0.25472795565468476
6.786786786786787,0.30669344596116316
6.806806806806807,0.35381252218554954
6.826826826826827,0.39534060188711584
6.846846846846847,0.4306214523588437
6.866866866866867,0.45909756051133876
6.886886886886887,0.48031894277511217
6.906906906906907,0.4939502558058585
6.926926926926927,0.49977609562837194
6.946946946946947,0.49770440148123857
6.966966966966967,0.4877679105742706
6.986986986986987,0.47012364077039476
7.007007007007007,0.445050409366724
7.027027027027027,0.4129444271834072
7.047047047047047,0.37431303758308104
7.067067067067067,0.32976669935785663
7.087087087087087,0.28000934017141055
7.107107107107107,0.22582723299248572
7.127127127127127,0.16807657129598516
7.147147147147147,0.10766993937017047
7.167167167167167,0.045561891528061074
7.187187187187187,-0.01726613189753799
7.207207207207207,-0.07982131341577499
7.227227227227227,-0.14111514702298333
7.247247247247247,-0.20017905871716754
7.267267267267267,-0.25607971204413965
7.287287287287287,-0.3079337568148078
7.307307307307307,-0.3549217879323254
7.327327327327327,-0.3963012937496502
7.347347347347347,-0.43141838934571836
7.367367367367367,-0.45971814930930693
7.387387387387387,-0.4807533767504512
7.407407407407407,-0.4941916699702111
7.4274274274274275,-0.4998206751202822
7.4474474474474475,-0.49755144184914357
7.4674674674674675,-0.48741982890834534
7.4874874874874875,-0.4695859375073446
7.5075075075075075,-0.4443315813710903
7.5275275275275275,-0.41205583347888763
7.5475475475475475,-0.3732687198555988
7.5675675675675675,-0.3285831600668131
7.587587587587588,-0.278705281775441
7.607607607607608,-0.2244232624105066
7.627627627627628,-0.16659487427370082
7.647647647647648,-0.10613392989769965
7.667667667667668,-0.04399584184869963
7.687687687687688,0.018837474840810806
7.707707707707708,0.0813731190350599
7.727727727727728,0.1426228934619935
7.747747747747748,0.2016189203491396
7.767767767767768,0.2574289359678253
7.787787787787788,0.3091710223991021
7.807807807807808,0.35602754372795553
7.827827827827828,0.39725806644399775
7.847847847847848,0.4322110598786263
7.867867867867868,0.46033419178664964
7.887887887887888,0.4811830563801206
7.907907907907908,0.49442819689270584
7.927927927927928,0.49986031170304757
7.947947947947948,0.49739356174918
7.967967967967968,0.487066926969771
7.987987987987988,0.4690435903375076
8.008008008008009,0.4436083592182176
8.028028028028029,0.41116316480378384
8.048048048048049,0.37222071073746005
8.068068068068069,0.3273963712969285
8.088088088088089,0.27739846716117944
8.108108108108109,0.22301707242494992
8.128128128128129,0.16511152973387627
8.148148148148149,0.10459687082804224
8.168168168168169,0.042429357078391364
8.188188188188189,-0.020408631493420756
8.208208208208209,-0.08292411992586417
8.228228228228229,-0.14412922945113743
8.248248248248249,-0.20305678809799887
8.268268268268269,-0.25877561408277683
8.288288288288289,-0.3104052304782778
8.308308308308309,-0.3571297786372196
8.328328328328329,-0.39821091050828616
8.348348348348349,-0.43299945611855933
8.368368368368369,-0.46094568185109935
8.388388388388389,-0.48160797741486244
8.408408408408409,-0.4946598342342422
8.428428428428429,-0.4998950049846874
8.448448448448449,-0.4972307627426814
8.468468468468469,-0.4867092082485229
8.488488488488489,-0.46849660462435516
8.508508508508509,-0.4428807500603172
8.528528528528529,-0.41026642998602625
8.548548548548549,-0.3711690205928143
8.568568568568569,-0.3262063447847957
8.588588588588589,-0.27608890925219853
8.608608608608609,-0.22160867694213862
8.62862862862863,-0.16362655234585397
8.64864864864865,-0.1030587773617435
8.66866866866867,-0.04086245270868318
8.68868868868869,0.021979586317618954
8.70870870870871,0.08447430074976672
8.72872872872873,0.14563414009370854
8.74874874874875,0.20449264774413964
8.76876876876877,0.26011973307119646
8.78878878878879,0.31163636884679496
8.80880880880881,0.3582284817597093
8.82882882882883,0.3991598165194884
8.84884884884885,0.4337835702687809
8.86886886886887,0.4615526134554048
8.88888888888889,0.48202813565247565
8.90890890890891,0.49488657970407296
8.92892892892893,0.49992475462210717
8.94894894894895,0.49706304643962734
8.96896896896897,0.4863466762822137
8.98898898898899,0.4679449857772277
9.00900900900901,0.44214876109297996
9.02902902902903,0.4093656378937509
9.04904904904905,0.37011365982220706
9.06906906906907,0.3250130922990187
9.08908908908909,0.27477662099919176
9.10910910910911,0.2201980898902067
9.12912912912913,0.16213995679511412
9.14914914914915,0.10151966470956783
9.16916916916917,0.03929514423526094
9.18918918918919,-0.02355032377766313
9.20920920920921,-0.08602364617646688
9.22922922922923,-0.14713761050709945
9.24924924924925,-0.20592648508782493
9.26926926926927,-0.26146127964060395
9.28928928928929,-0.3128644253294796
9.30930930930931,-0.3593236422299506
9.32932932932933,-0.4001047750935285
9.34934934934935,-0.4345633945748963
9.36936936936937,-0.4621549805973991
9.38938938938939,-0.4824435269378629
9.40940940940941,-0.4951084310598298
9.42942942942943,-0.4999495603211017
9.44944944944945,-0.49689041449862525
9.46946946946947,-0.48597933465605353
9.48948948948949,-0.467388739251284
9.50950950950951,-0.4414123995551122
9.52952952952953,-0.4084607974352196
9.54954954954955,-0.3690546388624863
9.56956956956957,-0.32381662564010705
9.58958958958959,-0.27346161537985664
9.60960960960961,-0.21878532521897093
9.62962962962963,-0.16065175778314286
9.64964964964965,-0.09997954809236216
9.66966966966967,-0.03772744715781037
9.68968968968969,0.025120828339957053
9.70970970970971,0.08757214088392207
9.72972972972973,0.1486396258229355
9.74974974974975,0.20735828594931374
9.76976976976977,0.26280024052395534
9.78978978978979,0.3140893877816328
9.80980980980981,0.36041524921750195
9.82982982982983,0.4010457768853661
9.84984984984985,0.4353389213249401
9.86986986986987,0.46275277732005643
9.88988988988989,0.4828541471630691
9.90990990990991,0.4953253861075438
9.92992992992993,0.49996942183635856
9.94994994994995,0.4967128686268954
9.96996996996997,0.4856071870028171
9.98998998998999,0.4668278705474516
10.01001001001001,0.4406716727288619
10.03003003003003,0.40755191755873216
10.05005005005005,0.36799196818669694
10.07007007007007,0.32261695664035356
10.09009009009009,0.272143905398764
10.11011011011011,0.2173703968997769
10.13013013013013,0.159161970027287
10.15015015015015,0.09843844274090206
10.17017017017017,0.036159376979856724
10.19019019019019,-0.0266910844732077
10.21021021021021,-0.08911976955849925
10.23023023023023,-0.1501401711872422
10.25025025025025,-0.20878803616900457
10.27027027027027,-0.2641366024797807
10.29029029029029,-0.3153112440891536
10.31031031031031,-0.3615032919270656
10.33033033033033,-0.40198281258909097
10.35035035035035,-0.4361101428494434
10.37037037037037,-0.4633459977115399
10.39039039039039,-0.48325999226731814
10.41041041041041,-0.4955374427016676
